% FILE: Exam2_matlab.1
%
%       t             Q1             Q2             Q3             U1             U2             U3
%     (sec)          (deg)           (m)           (deg)         (rad/s)         (m/s)         (rad/s)

  0.000000E+00   1.500004E+01   2.000000E-02   1.500004E+01   8.730000E-02   0.000000E+00   0.000000E+00 
  1.000000E-01   1.847861E+01   1.561525E-02   1.416261E+01   1.129229E+00  -8.638830E-02  -2.879610E-01 
  2.000000E-01   2.797215E+01   3.202574E-03   1.179196E+01   2.185248E+00  -1.585557E-01  -5.285189E-01 
  3.000000E-01   4.343792E+01  -1.533459E-02   8.251625E+00   3.194228E+00  -2.082268E-01  -6.940894E-01 
  4.000000E-01   6.415519E+01  -3.772361E-02   3.975638E+00   3.980923E+00  -2.366020E-01  -7.886734E-01 
  5.000000E-01   8.818419E+01  -6.223130E-02  -7.049863E-01   4.314376E+00  -2.522026E-01  -8.406753E-01 
  6.000000E-01   1.124480E+02  -8.797612E-02  -5.621884E+00   4.055077E+00  -2.617981E-01  -8.726604E-01 
  7.000000E-01   1.336256E+02  -1.143055E-01  -1.065042E+01   3.264100E+00  -2.625216E-01  -8.750719E-01 
  8.000000E-01   1.492535E+02  -1.398227E-01  -1.552385E+01   2.159982E+00  -2.436185E-01  -8.120618E-01 
  9.000000E-01   1.582264E+02  -1.620950E-01  -1.977755E+01   9.732741E-01  -1.970983E-01  -6.569945E-01 
  1.000000E+00   1.605141E+02  -1.784025E-01  -2.289205E+01  -1.606181E-01  -1.256926E-01  -4.189752E-01 
  1.100000E+00   1.565564E+02  -1.867853E-01  -2.449305E+01  -1.206649E+00  -4.090338E-02  -1.363446E-01 
  1.200000E+00   1.468402E+02  -1.865946E-01  -2.445662E+01  -2.171286E+00   4.368018E-02   1.456006E-01 
  1.300000E+00   1.318728E+02  -1.783908E-01  -2.288981E+01  -3.029506E+00   1.182761E-01   3.942538E-01 
  1.400000E+00   1.125276E+02  -1.633670E-01  -2.002049E+01  -3.674214E+00   1.802630E-01   6.008766E-01 
  1.500000E+00   9.050703E+01  -1.426487E-01  -1.606358E+01  -3.933776E+00   2.329166E-01   7.763885E-01 
  1.600000E+00   6.845716E+01  -1.169979E-01  -1.116465E+01  -3.671030E+00   2.788523E-01   9.295076E-01 
  1.700000E+00   4.944087E+01  -8.726479E-02  -5.486032E+00  -2.890008E+00   3.128841E-01   1.042947E+00 
  1.800000E+00   3.602673E+01  -5.525119E-02   6.281169E-01  -1.751914E+00   3.220776E-01   1.073592E+00 
  1.900000E+00   2.960154E+01  -2.405845E-02   6.585491E+00  -4.886461E-01   2.954378E-01   9.847928E-01 
  2.000000E+00   3.028867E+01   2.652219E-03   1.168685E+01   7.052436E-01   2.336880E-01   7.789599E-01 
  2.100000E+00   3.734009E+01   2.190992E-02   1.536480E+01   1.721994E+00   1.489669E-01   4.965563E-01 
  2.200000E+00   4.960748E+01   3.220006E-02   1.733008E+01   2.522625E+00   5.670376E-02   1.890125E-01 
  2.300000E+00   6.579472E+01   3.336933E-02   1.755339E+01   3.085229E+00  -3.227141E-02  -1.075714E-01 
  2.400000E+00   8.441644E+01   2.597355E-02   1.614090E+01   3.361296E+00  -1.145880E-01  -3.819601E-01 
  2.500000E+00   1.036205E+02   1.062540E-02   1.320962E+01   3.275695E+00  -1.916431E-01  -6.388102E-01 
  2.600000E+00   1.211480E+02  -1.218338E-02   8.853462E+00   2.771070E+00  -2.632691E-01  -8.775637E-01 
  2.700000E+00   1.345971E+02  -4.160065E-02   3.235178E+00   1.862937E+00  -3.217912E-01  -1.072637E+00 
  2.800000E+00   1.419430E+02  -7.562079E-02  -3.262191E+00   6.682256E-01  -3.527877E-01  -1.175959E+00 
  2.900000E+00   1.420812E+02  -1.108443E-01  -9.989384E+00  -6.166588E-01  -3.448399E-01  -1.149466E+00 
  3.000000E+00   1.351138E+02  -1.433146E-01  -1.619076E+01  -1.779064E+00  -2.990829E-01  -9.969430E-01 
  3.100000E+00   1.222484E+02  -1.698131E-01  -2.125160E+01  -2.654387E+00  -2.279292E-01  -7.597640E-01 
  3.200000E+00   1.054104E+02  -1.885249E-01  -2.482529E+01  -3.158570E+00  -1.452637E-01  -4.842123E-01 
  3.300000E+00   8.678662E+01  -1.987440E-01  -2.677700E+01  -3.280462E+00  -5.871554E-02  -1.957185E-01 
  3.400000E+00   6.849171E+01  -2.001871E-01  -2.705261E+01  -3.050393E+00   3.029000E-02   1.009667E-01 
  3.500000E+00   5.242954E+01  -1.926155E-01  -2.560653E+01  -2.506850E+00   1.212419E-01   4.041396E-01 
  3.600000E+00   4.030773E+01  -1.760382E-01  -2.244051E+01  -1.679376E+00   2.089628E-01   6.965426E-01 
  3.700000E+00   3.366296E+01  -1.513202E-01  -1.771971E+01  -6.033456E-01   2.816581E-01   9.388602E-01 
  3.800000E+00   3.371988E+01  -1.206916E-01  -1.187009E+01   6.406446E-01   3.250229E-01   1.083410E+00 
  3.900000E+00   4.103030E+01  -8.757324E-02  -5.544941E+00   1.895958E+00   3.311408E-01   1.103803E+00 
  4.000000E+00   5.505015E+01  -5.555017E-02   5.710152E-01   2.944395E+00   3.049826E-01   1.016609E+00 
  4.100000E+00   7.397845E+01  -2.719722E-02   5.986031E+00   3.581993E+00   2.600646E-01   8.668821E-01 
  4.200000E+00   9.512137E+01  -3.811732E-03   1.045233E+01   3.714149E+00   2.065540E-01   6.885133E-01 
  4.300000E+00   1.156654E+02   1.386305E-02   1.382796E+01   3.391833E+00   1.453535E-01   4.845116E-01 
  4.400000E+00   1.333907E+02   2.486703E-02   1.592957E+01   2.755728E+00   7.251063E-02   2.417021E-01 
  4.500000E+00   1.468975E+02   2.793513E-02   1.651553E+01   1.935653E+00  -1.296374E-02  -4.321248E-02 
  4.600000E+00   1.553362E+02   2.205930E-02   1.539333E+01   9.902584E-01  -1.046521E-01  -3.488403E-01 
  4.700000E+00   1.580119E+02   7.229666E-03   1.256108E+01  -7.697074E-02  -1.895164E-01  -6.317212E-01 
  4.800000E+00   1.542375E+02  -1.511083E-02   8.294360E+00  -1.255052E+00  -2.525534E-01  -8.418446E-01 
  4.900000E+00   1.435739E+02  -4.220729E-02   3.119318E+00  -2.458706E+00  -2.837839E-01  -9.459465E-01 
  5.000000E+00   1.263738E+02  -7.083541E-02  -2.348250E+00  -3.497329E+00  -2.844265E-01  -9.480884E-01 
  5.100000E+00   1.042832E+02  -9.844587E-02  -7.621459E+00  -4.127271E+00  -2.656523E-01  -8.855077E-01 
  5.200000E+00   8.018499E+01  -1.236955E-01  -1.244378E+01  -4.184920E+00  -2.384175E-01  -7.947252E-01 
  5.300000E+00   5.738441E+01  -1.459219E-01  -1.668871E+01  -3.695075E+00  -2.046650E-01  -6.822167E-01 
  5.400000E+00   3.853552E+01  -1.642146E-01  -2.018236E+01  -2.842994E+00  -1.585267E-01  -5.284224E-01 
  5.500000E+00   2.509406E+01  -1.770320E-01  -2.263030E+01  -1.836673E+00  -9.482039E-02  -3.160680E-01 
  5.600000E+00   1.754960E+01  -1.826668E-01  -2.370648E+01  -7.949287E-01  -1.603388E-02  -5.344626E-02 
  5.700000E+00   1.601277E+01  -1.800727E-01  -2.321104E+01   2.628286E-01   6.762153E-02   2.254051E-01 
  5.800000E+00   2.063440E+01  -1.694324E-01  -2.117889E+01   1.357545E+00   1.426568E-01   4.755227E-01 
  5.900000E+00   3.161571E+01  -1.522091E-01  -1.788948E+01   2.473055E+00   1.979417E-01   6.598056E-01 
  6.000000E+00   4.879611E+01  -1.306184E-01  -1.376597E+01   3.491713E+00   2.303560E-01   7.678532E-01 
  6.100000E+00   7.102091E+01  -1.066901E-01  -9.195997E+00   4.192403E+00   2.463005E-01   8.210017E-01 
  6.200000E+00   9.580102E+01  -8.160203E-02  -4.404524E+00   4.356042E+00   2.546498E-01   8.488328E-01 
  6.300000E+00   1.197756E+02  -5.595246E-02   4.941845E-01   3.919005E+00   2.568578E-01   8.561927E-01 
  6.400000E+00   1.398298E+02  -3.070991E-02   5.315155E+00   3.024852E+00   2.446001E-01   8.153336E-01 
  6.500000E+00   1.540345E+02  -7.872200E-03   9.676837E+00   1.917383E+00   2.074533E-01   6.915110E-01 
  6.600000E+00   1.617712E+02   9.855352E-03   1.306255E+01   7.898867E-01   1.429270E-01   4.764234E-01 
  6.700000E+00   1.632024E+02   2.006138E-02   1.501176E+01  -2.795988E-01   5.904625E-02   1.968208E-01 
  6.800000E+00   1.586672E+02   2.148613E-02   1.528386E+01  -1.297168E+00  -3.018939E-02  -1.006313E-01 
  6.900000E+00   1.483979E+02   1.432039E-02   1.391531E+01  -2.281134E+00  -1.106905E-01  -3.689682E-01 
  7.000000E+00   1.326681E+02  -4.957102E-05   1.117085E+01  -3.187571E+00  -1.734266E-01  -5.780885E-01 
  7.100000E+00   1.122955E+02  -1.974802E-02   7.408722E+00  -3.869396E+00  -2.179156E-01  -7.263855E-01 
  7.200000E+00   8.915397E+01  -4.323815E-02   2.922438E+00  -4.121283E+00  -2.505320E-01  -8.351065E-01 
  7.300000E+00   6.615825E+01  -6.964483E-02  -2.120867E+00  -3.809438E+00  -2.765187E-01  -9.217289E-01 
  7.400000E+00   4.650364E+01  -9.820386E-02  -7.575240E+00  -2.978303E+00  -2.920426E-01  -9.734753E-01 
  7.500000E+00   3.263970E+01  -1.273026E-01  -1.313268E+01  -1.828617E+00  -2.851444E-01  -9.504813E-01 
  7.600000E+00   2.570580E+01  -1.541629E-01  -1.826263E+01  -5.940492E-01  -2.465916E-01  -8.219721E-01 
  7.700000E+00   2.568387E+01  -1.756316E-01  -2.236284E+01   5.661638E-01  -1.786996E-01  -5.956652E-01 
  7.800000E+00   3.192449E+01  -1.893185E-01  -2.497685E+01   1.587174E+00  -9.333180E-02  -3.111060E-01 
  7.900000E+00   4.357578E+01  -1.941789E-01  -2.590512E+01   2.452740E+00  -4.229176E-03  -1.409725E-02 
  8.000000E+00   5.967867E+01  -1.903584E-01  -2.517547E+01   3.131834E+00   7.929496E-02   2.643165E-01 
  8.100000E+00   7.894697E+01  -1.785976E-01  -2.292931E+01   3.538792E+00   1.546448E-01   5.154828E-01 
  8.200000E+00   9.947677E+01  -1.596471E-01  -1.931004E+01   3.552540E+00   2.233915E-01   7.446382E-01 
  8.300000E+00   1.187403E+02  -1.341499E-01  -1.444042E+01   3.090771E+00   2.849310E-01   9.497699E-01 
  8.400000E+00   1.340323E+02  -1.031709E-01  -8.523865E+00   2.182038E+00   3.309361E-01   1.103120E+00 
  8.500000E+00   1.431763E+02  -6.895684E-02  -1.989470E+00   9.780373E-01   3.472723E-01   1.157574E+00 
  8.600000E+00   1.450928E+02  -3.504364E-02   4.487474E+00  -3.036402E-01   3.242785E-01   1.080928E+00 
  8.700000E+00   1.399368E+02  -5.313599E-03   1.016549E+01  -1.462220E+00   2.652976E-01   8.843252E-01 
  8.800000E+00   1.288270E+02   1.727981E-02   1.448052E+01  -2.366851E+00   1.842411E-01   6.141368E-01 
  8.900000E+00   1.134120E+02   3.129182E-02   1.715661E+01  -2.960136E+00   9.563795E-02   3.187932E-01 
  9.000000E+00   9.553160E+01   3.642048E-02   1.813612E+01  -3.226197E+00   7.178144E-03   2.392715E-02 
  9.100000E+00   7.708160E+01   3.276283E-02   1.743756E+01  -3.157450E+00  -8.027463E-02  -2.675821E-01 
  9.200000E+00   6.000891E+01   2.037183E-02   1.507105E+01  -2.743891E+00  -1.673639E-01  -5.578797E-01 
  9.300000E+00   4.630020E+01  -5.665863E-04   1.107211E+01  -1.985403E+00  -2.498567E-01  -8.328558E-01 
  9.400000E+00   3.784496E+01  -2.904824E-02   5.632512E+00  -9.220542E-01  -3.156731E-01  -1.052244E+00 
  9.500000E+00   3.610731E+01  -6.262601E-02  -7.803713E-01   3.339505E-01  -3.494897E-01  -1.164966E+00 
  9.600000E+00   4.168543E+01  -9.759044E-02  -7.458085E+00   1.595931E+00  -3.431412E-01  -1.143804E+00 
  9.700000E+00   5.398747E+01  -1.300846E-01  -1.366401E+01   2.645815E+00  -3.020175E-01  -1.006725E+00 
  9.800000E+00   7.125651E+01  -1.573040E-01  -1.886254E+01   3.307910E+00  -2.400849E-01  -8.002832E-01 
  9.900000E+00   9.100827E+01  -1.778024E-01  -2.277745E+01   3.510542E+00  -1.688746E-01  -5.629155E-01 
  1.000000E+01   1.106779E+02  -1.908961E-01  -2.527816E+01   3.293003E+00  -9.201398E-02  -3.067133E-01 
  1.010000E+01   1.281321E+02  -1.959805E-01  -2.624920E+01   2.754953E+00  -8.484546E-03  -2.828182E-02 
  1.020000E+01   1.418102E+02  -1.923923E-01  -2.556391E+01   1.986244E+00   8.084138E-02   2.694713E-01 
  1.030000E+01   1.505384E+02  -1.798470E-01  -2.316793E+01   1.031051E+00   1.689101E-01   5.630337E-01 
  1.040000E+01   1.533059E+02  -1.590791E-01  -1.920156E+01  -9.020946E-02   2.428796E-01   8.095987E-01 
  1.050000E+01   1.492834E+02  -1.321978E-01  -1.406760E+01  -1.324320E+00   2.893077E-01   9.643591E-01 
  1.060000E+01   1.381702E+02  -1.023497E-01  -8.367043E+00  -2.534360E+00   3.022329E-01   1.007443E+00 
  1.070000E+01   1.207085E+02  -7.266484E-02  -2.697646E+00  -3.499860E+00   2.879978E-01   9.599927E-01 
  1.080000E+01   9.896030E+01  -4.522110E-02   2.543723E+00  -4.000928E+00   2.594132E-01   8.647107E-01 
  1.090000E+01   7.594247E+01  -2.100226E-02   7.169180E+00  -3.942429E+00   2.238491E-01   7.461635E-01 
  1.100000E+01   5.469909E+01  -7.629906E-04   1.103460E+01  -3.408255E+00   1.787947E-01   5.959822E-01 
  1.110000E+01   3.743104E+01   1.422125E-02   1.389638E+01  -2.587933E+00   1.178614E-01   3.928712E-01 
  1.120000E+01   2.526931E+01   2.221567E-02   1.542320E+01  -1.645790E+00   3.942908E-02   1.314303E-01 
  1.130000E+01   1.866894E+01   2.174520E-02   1.533334E+01  -6.500540E-01  -4.964090E-02  -1.654697E-01 
  1.140000E+01   1.793487E+01   1.237010E-02   1.354283E+01   4.059159E-01  -1.361794E-01  -4.539314E-01 
  1.150000E+01   2.346409E+01  -4.913076E-03   1.024199E+01   1.534759E+00  -2.055356E-01  -6.851185E-01 
  1.160000E+01   3.556265E+01  -2.781248E-02   5.868524E+00   2.680807E+00  -2.475138E-01  -8.250459E-01 
  1.170000E+01   5.389954E+01  -5.348515E-02   9.654057E-01   3.674974E+00  -2.619404E-01  -8.731346E-01 
  1.180000E+01   7.691370E+01  -7.959930E-02  -4.022029E+00   4.272671E+00  -2.583543E-01  -8.611809E-01 
  1.190000E+01   1.017392E+02  -1.049082E-01  -8.855676E+00   4.290191E+00  -2.470021E-01  -8.233405E-01 
  1.200000E+01   1.249709E+02  -1.288052E-01  -1.341966E+01   3.735970E+00  -2.294751E-01  -7.649170E-01 
  1.210000E+01   1.438197E+02  -1.503544E-01  -1.753527E+01   2.800491E+00  -1.984779E-01  -6.615931E-01 
  1.220000E+01   1.567822E+02  -1.677907E-01  -2.086534E+01   1.714997E+00  -1.464952E-01  -4.883172E-01 
  1.230000E+01   1.634683E+02  -1.789683E-01  -2.300011E+01   6.235197E-01  -7.427340E-02  -2.475780E-01 
  1.240000E+01   1.639848E+02  -1.822850E-01  -2.363356E+01  -4.396819E-01   8.630671E-03   2.876890E-02 
  1.250000E+01   1.584431E+02  -1.773354E-01  -2.268824E+01  -1.495180E+00   8.880083E-02   2.960028E-01 
  1.260000E+01   1.468638E+02  -1.650102E-01  -2.033432E+01  -2.540924E+00   1.546514E-01   5.155045E-01 
  1.270000E+01   1.295146E+02  -1.470483E-01  -1.690384E+01  -3.484091E+00   2.015301E-01   6.717670E-01 
  1.280000E+01   1.075104E+02  -1.252065E-01  -1.273235E+01  -4.127289E+00   2.334674E-01   7.782248E-01 
  1.290000E+01   8.320787E+01  -1.006046E-01  -8.033744E+00  -4.257712E+00   2.576839E-01   8.589464E-01 
  1.300000E+01   5.986621E+01  -7.387623E-02  -2.929004E+00  -3.795719E+00   2.753269E-01   9.177564E-01 
  1.310000E+01   4.061959E+01  -4.604399E-02   2.386563E+00  -2.862773E+00   2.776931E-01   9.256436E-01 
  1.320000E+01   2.750152E+01  -1.925642E-02   7.502612E+00  -1.698057E+00   2.527881E-01   8.426271E-01 
  1.330000E+01   2.119093E+01   3.445949E-03   1.183844E+01  -5.138926E-01   1.962790E-01   6.542634E-01 
  1.340000E+01   2.143913E+01   1.918022E-02   1.484347E+01   5.825110E-01   1.154310E-01   3.847700E-01 
  1.350000E+01   2.766220E+01   2.619427E-02   1.618305E+01   1.573050E+00   2.443999E-02   8.146663E-02 
  1.360000E+01   3.927892E+01   2.421060E-02   1.580420E+01   2.464553E+00  -6.246853E-02  -2.082284E-01 
  1.370000E+01   5.564738E+01   1.414128E-02   1.388110E+01   3.218681E+00  -1.364386E-01  -4.547953E-01 
  1.380000E+01   7.567368E+01  -2.605921E-03   1.068262E+01   3.715235E+00  -1.964756E-01  -6.549187E-01 
  1.390000E+01   9.741398E+01  -2.483756E-02   6.436692E+00   3.791502E+00  -2.469559E-01  -8.231864E-01 
  1.400000E+01   1.181174E+02  -5.176728E-02   1.293494E+00   3.347593E+00  -2.902062E-01  -9.673541E-01 
  1.410000E+01   1.348635E+02  -8.242888E-02  -4.562440E+00   2.431563E+00  -3.196813E-01  -1.065604E+00 
  1.420000E+01   1.454293E+02  -1.147925E-01  -1.074344E+01   1.228029E+00  -3.219937E-01  -1.073312E+00 
  1.430000E+01   1.488237E+02  -1.456101E-01  -1.662917E+01  -3.616818E-02  -2.882606E-01  -9.608688E-01 
  1.440000E+01   1.452392E+02  -1.713572E-01  -2.154650E+01  -1.185826E+00  -2.222355E-01  -7.407851E-01 
  1.450000E+01   1.356364E+02  -1.894158E-01  -2.499544E+01  -2.127243E+00  -1.369677E-01  -4.565590E-01 
  1.460000E+01   1.213366E+02  -1.985658E-01  -2.674295E+01  -2.820756E+00  -4.593482E-02  -1.531161E-01 
  1.470000E+01   1.038460E+02  -1.986771E-01  -2.676422E+01  -3.234357E+00   4.309103E-02   1.436368E-01 
  1.480000E+01   8.490434E+01  -1.900733E-01  -2.512101E+01  -3.317418E+00   1.284081E-01   4.280271E-01 
  1.490000E+01   6.657037E+01  -1.731148E-01  -2.188218E+01  -3.014633E+00   2.099860E-01   6.999535E-01 
  1.500000E+01   5.113812E+01  -1.483395E-01  -1.715044E+01  -2.306624E+00   2.833814E-01   9.446046E-01 
  1.510000E+01   4.081106E+01  -1.171006E-01  -1.118425E+01  -1.249581E+00   3.368048E-01   1.122683E+00 
  1.520000E+01   3.721174E+01  -8.212880E-02  -4.505130E+00   1.093527E-02   3.560092E-01   1.186697E+00 
  1.530000E+01   4.093052E+01  -4.726429E-02   2.153502E+00   1.268386E+00   3.347576E-01   1.115859E+00 
  1.540000E+01   5.134242E+01  -1.628946E-02   8.069259E+00   2.316584E+00   2.804159E-01   9.347196E-01 
  1.550000E+01   6.679790E+01   8.217790E-03   1.274980E+01   3.012699E+00   2.078893E-01   6.929645E-01 
  1.560000E+01   8.509174E+01   2.507170E-02   1.596866E+01   3.306336E+00   1.285503E-01   4.285011E-01 
  1.570000E+01   1.039625E+02   3.381217E-02   1.763797E+01   3.222378E+00   4.558294E-02   1.519431E-01 
  1.580000E+01   1.214056E+02   3.402287E-02   1.767821E+01   2.817558E+00  -4.226328E-02  -1.408776E-01 
  1.590000E+01   1.357277E+02   2.522169E-02   1.599730E+01   2.138674E+00  -1.339922E-01  -4.466406E-01 
  1.600000E+01   1.454372E+02   7.351131E-03   1.258428E+01   1.210903E+00  -2.216750E-01  -7.389166E-01 
  1.610000E+01   1.491896E+02  -1.849695E-02   7.647659E+00   6.834328E-02  -2.908543E-01  -9.695142E-01 
  1.620000E+01   1.459797E+02  -4.971160E-02   1.686100E+00  -1.197197E+00  -3.271235E-01  -1.090412E+00 
  1.630000E+01   1.355669E+02  -8.263892E-02  -4.602554E+00  -2.410303E+00  -3.253996E-01  -1.084665E+00 
  1.640000E+01   1.188978E+02  -1.137839E-01  -1.055080E+01  -3.342939E+00  -2.936624E-01  -9.788747E-01 
  1.650000E+01   9.816492E+01  -1.408400E-01  -1.571814E+01  -3.806399E+00  -2.457657E-01  -8.192190E-01 
  1.660000E+01   7.629155E+01  -1.626955E-01  -1.989223E+01  -3.745426E+00  -1.902931E-01  -6.343103E-01 
  1.670000E+01   5.607385E+01  -1.786472E-01  -2.293878E+01  -3.253080E+00  -1.271651E-01  -4.238838E-01 
  1.680000E+01   3.952849E+01  -1.877587E-01  -2.467895E+01  -2.489809E+00  -5.309703E-02  -1.769901E-01 
  1.690000E+01   2.781845E+01  -1.889179E-01  -2.490034E+01  -1.579219E+00   3.117219E-02   1.039073E-01 
  1.700000E+01   2.162430E+01  -1.814403E-01  -2.347224E+01  -5.662991E-01   1.177736E-01   3.925785E-01 
  1.710000E+01   2.152626E+01  -1.657197E-01  -2.046981E+01   5.490372E-01   1.936750E-01   6.455833E-01 
  1.720000E+01   2.807268E+01  -1.434994E-01  -1.622604E+01   1.743409E+00   2.460042E-01   8.200141E-01 
  1.730000E+01   4.145028E+01  -1.175073E-01  -1.126192E+01   2.905658E+00   2.691079E-01   8.970264E-01 
  1.740000E+01   6.090139E+01  -9.046845E-02  -6.097884E+00   3.822004E+00   2.687195E-01   8.957318E-01 
  1.750000E+01   8.432077E+01  -6.415240E-02  -1.071889E+00   4.257674E+00   2.564366E-01   8.547886E-01 
  1.760000E+01   1.085462E+02  -3.936469E-02   3.662215E+00   4.101520E+00   2.382555E-01   7.941851E-01 
  1.770000E+01   1.303540E+02  -1.683496E-02   7.965076E+00   3.443769E+00   2.099055E-01   6.996850E-01 
  1.780000E+01   1.474680E+02   1.985408E-03   1.155950E+01   2.501671E+00   1.628288E-01   5.427627E-01 
  1.790000E+01   1.588572E+02   1.498553E-02   1.404234E+01   1.469741E+00   9.374075E-02   3.124692E-01 
  1.800000E+01   1.643097E+02   2.019730E-02   1.503772E+01   4.344672E-01   8.795395E-03   2.931798E-02 
  1.810000E+01   1.638226E+02   1.664379E-02   1.435905E+01  -6.084953E-01  -7.911934E-02  -2.637311E-01 
  1.820000E+01   1.572689E+02   4.763730E-03   1.209012E+01  -1.685131E+00  -1.554442E-01  -5.181472E-01 
  1.830000E+01   1.444975E+02  -1.368509E-02   8.566657E+00  -2.765566E+00  -2.092797E-01  -6.975989E-01 
  1.840000E+01   1.258335E+02  -3.626003E-02   4.255162E+00  -3.708553E+00  -2.385070E-01  -7.950234E-01 
  1.850000E+01   1.027089E+02  -6.080899E-02  -4.333454E-01  -4.281726E+00  -2.504892E-01  -8.349640E-01 
