% FILE: Exam2_matlab.1
%
%       t             Q1             Q2             Q3
%     (sec)          (deg)           (m)           (deg)

  0.000000E+00   1.500004E+01   2.000000E-02   1.500004E+01 
  1.000000E-01   1.847861E+01   1.561525E-02   1.416261E+01 
  2.000000E-01   2.797215E+01   3.202574E-03   1.179196E+01 
  3.000000E-01   4.343792E+01  -1.533459E-02   8.251625E+00 
  4.000000E-01   6.415519E+01  -3.772361E-02   3.975638E+00 
  5.000000E-01   8.818419E+01  -6.223130E-02  -7.049863E-01 
  6.000000E-01   1.124480E+02  -8.797612E-02  -5.621884E+00 
  7.000000E-01   1.336256E+02  -1.143055E-01  -1.065042E+01 
  8.000000E-01   1.492535E+02  -1.398227E-01  -1.552385E+01 
  9.000000E-01   1.582264E+02  -1.620950E-01  -1.977755E+01 
  1.000000E+00   1.605141E+02  -1.784025E-01  -2.289205E+01 
  1.100000E+00   1.565564E+02  -1.867853E-01  -2.449305E+01 
  1.200000E+00   1.468402E+02  -1.865946E-01  -2.445662E+01 
  1.300000E+00   1.318728E+02  -1.783908E-01  -2.288981E+01 
  1.400000E+00   1.125276E+02  -1.633670E-01  -2.002049E+01 
  1.500000E+00   9.050703E+01  -1.426487E-01  -1.606358E+01 
  1.600000E+00   6.845716E+01  -1.169979E-01  -1.116465E+01 
  1.700000E+00   4.944087E+01  -8.726479E-02  -5.486032E+00 
  1.800000E+00   3.602673E+01  -5.525119E-02   6.281169E-01 
  1.900000E+00   2.960154E+01  -2.405845E-02   6.585491E+00 
  2.000000E+00   3.028867E+01   2.652219E-03   1.168685E+01 
  2.100000E+00   3.734009E+01   2.190992E-02   1.536480E+01 
  2.200000E+00   4.960748E+01   3.220006E-02   1.733008E+01 
  2.300000E+00   6.579472E+01   3.336933E-02   1.755339E+01 
  2.400000E+00   8.441644E+01   2.597355E-02   1.614090E+01 
  2.500000E+00   1.036205E+02   1.062540E-02   1.320962E+01 
  2.600000E+00   1.211480E+02  -1.218338E-02   8.853462E+00 
  2.700000E+00   1.345971E+02  -4.160065E-02   3.235178E+00 
  2.800000E+00   1.419430E+02  -7.562079E-02  -3.262191E+00 
  2.900000E+00   1.420812E+02  -1.108443E-01  -9.989384E+00 
  3.000000E+00   1.351138E+02  -1.433146E-01  -1.619076E+01 
  3.100000E+00   1.222484E+02  -1.698131E-01  -2.125160E+01 
  3.200000E+00   1.054104E+02  -1.885249E-01  -2.482529E+01 
  3.300000E+00   8.678662E+01  -1.987440E-01  -2.677700E+01 
  3.400000E+00   6.849171E+01  -2.001871E-01  -2.705261E+01 
  3.500000E+00   5.242954E+01  -1.926155E-01  -2.560653E+01 
  3.600000E+00   4.030773E+01  -1.760382E-01  -2.244051E+01 
  3.700000E+00   3.366296E+01  -1.513202E-01  -1.771971E+01 
  3.800000E+00   3.371988E+01  -1.206916E-01  -1.187009E+01 
  3.900000E+00   4.103030E+01  -8.757324E-02  -5.544941E+00 
  4.000000E+00   5.505015E+01  -5.555017E-02   5.710152E-01 
  4.100000E+00   7.397845E+01  -2.719722E-02   5.986031E+00 
  4.200000E+00   9.512137E+01  -3.811732E-03   1.045233E+01 
  4.300000E+00   1.156654E+02   1.386305E-02   1.382796E+01 
  4.400000E+00   1.333907E+02   2.486703E-02   1.592957E+01 
  4.500000E+00   1.468975E+02   2.793513E-02   1.651553E+01 
  4.600000E+00   1.553362E+02   2.205930E-02   1.539333E+01 
  4.700000E+00   1.580119E+02   7.229666E-03   1.256108E+01 
  4.800000E+00   1.542375E+02  -1.511083E-02   8.294360E+00 
  4.900000E+00   1.435739E+02  -4.220729E-02   3.119318E+00 
  5.000000E+00   1.263738E+02  -7.083541E-02  -2.348250E+00 
  5.100000E+00   1.042832E+02  -9.844587E-02  -7.621459E+00 
  5.200000E+00   8.018499E+01  -1.236955E-01  -1.244378E+01 
  5.300000E+00   5.738441E+01  -1.459219E-01  -1.668871E+01 
  5.400000E+00   3.853552E+01  -1.642146E-01  -2.018236E+01 
  5.500000E+00   2.509406E+01  -1.770320E-01  -2.263030E+01 
  5.600000E+00   1.754960E+01  -1.826668E-01  -2.370648E+01 
  5.700000E+00   1.601277E+01  -1.800727E-01  -2.321104E+01 
  5.800000E+00   2.063440E+01  -1.694324E-01  -2.117889E+01 
  5.900000E+00   3.161571E+01  -1.522091E-01  -1.788948E+01 
  6.000000E+00   4.879611E+01  -1.306184E-01  -1.376597E+01 
  6.100000E+00   7.102091E+01  -1.066901E-01  -9.195997E+00 
  6.200000E+00   9.580102E+01  -8.160203E-02  -4.404524E+00 
  6.300000E+00   1.197756E+02  -5.595246E-02   4.941845E-01 
  6.400000E+00   1.398298E+02  -3.070991E-02   5.315155E+00 
  6.500000E+00   1.540345E+02  -7.872200E-03   9.676837E+00 
  6.600000E+00   1.617712E+02   9.855352E-03   1.306255E+01 
  6.700000E+00   1.632024E+02   2.006138E-02   1.501176E+01 
  6.800000E+00   1.586672E+02   2.148613E-02   1.528386E+01 
  6.900000E+00   1.483979E+02   1.432039E-02   1.391531E+01 
  7.000000E+00   1.326681E+02  -4.957102E-05   1.117085E+01 
  7.100000E+00   1.122955E+02  -1.974802E-02   7.408722E+00 
  7.200000E+00   8.915397E+01  -4.323815E-02   2.922438E+00 
  7.300000E+00   6.615825E+01  -6.964483E-02  -2.120867E+00 
  7.400000E+00   4.650364E+01  -9.820386E-02  -7.575240E+00 
  7.500000E+00   3.263970E+01  -1.273026E-01  -1.313268E+01 
  7.600000E+00   2.570580E+01  -1.541629E-01  -1.826263E+01 
  7.700000E+00   2.568387E+01  -1.756316E-01  -2.236284E+01 
  7.800000E+00   3.192449E+01  -1.893185E-01  -2.497685E+01 
  7.900000E+00   4.357578E+01  -1.941789E-01  -2.590512E+01 
  8.000000E+00   5.967867E+01  -1.903584E-01  -2.517547E+01 
  8.100000E+00   7.894697E+01  -1.785976E-01  -2.292931E+01 
  8.200000E+00   9.947677E+01  -1.596471E-01  -1.931004E+01 
  8.300000E+00   1.187403E+02  -1.341499E-01  -1.444042E+01 
  8.400000E+00   1.340323E+02  -1.031709E-01  -8.523865E+00 
  8.500000E+00   1.431763E+02  -6.895684E-02  -1.989470E+00 
  8.600000E+00   1.450928E+02  -3.504364E-02   4.487474E+00 
  8.700000E+00   1.399368E+02  -5.313599E-03   1.016549E+01 
  8.800000E+00   1.288270E+02   1.727981E-02   1.448052E+01 
  8.900000E+00   1.134120E+02   3.129182E-02   1.715661E+01 
  9.000000E+00   9.553160E+01   3.642048E-02   1.813612E+01 
  9.100000E+00   7.708160E+01   3.276283E-02   1.743756E+01 
  9.200000E+00   6.000891E+01   2.037183E-02   1.507105E+01 
  9.300000E+00   4.630020E+01  -5.665863E-04   1.107211E+01 
  9.400000E+00   3.784496E+01  -2.904824E-02   5.632512E+00 
  9.500000E+00   3.610731E+01  -6.262601E-02  -7.803713E-01 
  9.600000E+00   4.168543E+01  -9.759044E-02  -7.458085E+00 
  9.700000E+00   5.398747E+01  -1.300846E-01  -1.366401E+01 
  9.800000E+00   7.125651E+01  -1.573040E-01  -1.886254E+01 
  9.900000E+00   9.100827E+01  -1.778024E-01  -2.277745E+01 
  1.000000E+01   1.106779E+02  -1.908961E-01  -2.527816E+01 
  1.010000E+01   1.281321E+02  -1.959805E-01  -2.624920E+01 
  1.020000E+01   1.418102E+02  -1.923923E-01  -2.556391E+01 
  1.030000E+01   1.505384E+02  -1.798470E-01  -2.316793E+01 
  1.040000E+01   1.533059E+02  -1.590791E-01  -1.920156E+01 
  1.050000E+01   1.492834E+02  -1.321978E-01  -1.406760E+01 
  1.060000E+01   1.381702E+02  -1.023497E-01  -8.367043E+00 
  1.070000E+01   1.207085E+02  -7.266484E-02  -2.697646E+00 
  1.080000E+01   9.896030E+01  -4.522110E-02   2.543723E+00 
  1.090000E+01   7.594247E+01  -2.100226E-02   7.169180E+00 
  1.100000E+01   5.469909E+01  -7.629906E-04   1.103460E+01 
  1.110000E+01   3.743104E+01   1.422125E-02   1.389638E+01 
  1.120000E+01   2.526931E+01   2.221567E-02   1.542320E+01 
  1.130000E+01   1.866894E+01   2.174520E-02   1.533334E+01 
  1.140000E+01   1.793487E+01   1.237010E-02   1.354283E+01 
  1.150000E+01   2.346409E+01  -4.913076E-03   1.024199E+01 
  1.160000E+01   3.556265E+01  -2.781248E-02   5.868524E+00 
  1.170000E+01   5.389954E+01  -5.348515E-02   9.654057E-01 
  1.180000E+01   7.691370E+01  -7.959930E-02  -4.022029E+00 
  1.190000E+01   1.017392E+02  -1.049082E-01  -8.855676E+00 
  1.200000E+01   1.249709E+02  -1.288052E-01  -1.341966E+01 
  1.210000E+01   1.438197E+02  -1.503544E-01  -1.753527E+01 
  1.220000E+01   1.567822E+02  -1.677907E-01  -2.086534E+01 
  1.230000E+01   1.634683E+02  -1.789683E-01  -2.300011E+01 
  1.240000E+01   1.639848E+02  -1.822850E-01  -2.363356E+01 
  1.250000E+01   1.584431E+02  -1.773354E-01  -2.268824E+01 
  1.260000E+01   1.468638E+02  -1.650102E-01  -2.033432E+01 
  1.270000E+01   1.295146E+02  -1.470483E-01  -1.690384E+01 
  1.280000E+01   1.075104E+02  -1.252065E-01  -1.273235E+01 
  1.290000E+01   8.320787E+01  -1.006046E-01  -8.033744E+00 
  1.300000E+01   5.986621E+01  -7.387623E-02  -2.929004E+00 
  1.310000E+01   4.061959E+01  -4.604399E-02   2.386563E+00 
  1.320000E+01   2.750152E+01  -1.925642E-02   7.502612E+00 
  1.330000E+01   2.119093E+01   3.445949E-03   1.183844E+01 
  1.340000E+01   2.143913E+01   1.918022E-02   1.484347E+01 
  1.350000E+01   2.766220E+01   2.619427E-02   1.618305E+01 
  1.360000E+01   3.927892E+01   2.421060E-02   1.580420E+01 
  1.370000E+01   5.564738E+01   1.414128E-02   1.388110E+01 
  1.380000E+01   7.567368E+01  -2.605921E-03   1.068262E+01 
  1.390000E+01   9.741398E+01  -2.483756E-02   6.436692E+00 
  1.400000E+01   1.181174E+02  -5.176728E-02   1.293494E+00 
  1.410000E+01   1.348635E+02  -8.242888E-02  -4.562440E+00 
  1.420000E+01   1.454293E+02  -1.147925E-01  -1.074344E+01 
  1.430000E+01   1.488237E+02  -1.456101E-01  -1.662917E+01 
  1.440000E+01   1.452392E+02  -1.713572E-01  -2.154650E+01 
  1.450000E+01   1.356364E+02  -1.894158E-01  -2.499544E+01 
  1.460000E+01   1.213366E+02  -1.985658E-01  -2.674295E+01 
  1.470000E+01   1.038460E+02  -1.986771E-01  -2.676422E+01 
  1.480000E+01   8.490434E+01  -1.900733E-01  -2.512101E+01 
  1.490000E+01   6.657037E+01  -1.731148E-01  -2.188218E+01 
  1.500000E+01   5.113812E+01  -1.483395E-01  -1.715044E+01 
  1.510000E+01   4.081106E+01  -1.171006E-01  -1.118425E+01 
  1.520000E+01   3.721174E+01  -8.212880E-02  -4.505130E+00 
  1.530000E+01   4.093052E+01  -4.726429E-02   2.153502E+00 
  1.540000E+01   5.134242E+01  -1.628946E-02   8.069259E+00 
  1.550000E+01   6.679790E+01   8.217790E-03   1.274980E+01 
  1.560000E+01   8.509174E+01   2.507170E-02   1.596866E+01 
  1.570000E+01   1.039625E+02   3.381217E-02   1.763797E+01 
  1.580000E+01   1.214056E+02   3.402287E-02   1.767821E+01 
  1.590000E+01   1.357277E+02   2.522169E-02   1.599730E+01 
  1.600000E+01   1.454372E+02   7.351131E-03   1.258428E+01 
  1.610000E+01   1.491896E+02  -1.849695E-02   7.647659E+00 
  1.620000E+01   1.459797E+02  -4.971160E-02   1.686100E+00 
  1.630000E+01   1.355669E+02  -8.263892E-02  -4.602554E+00 
  1.640000E+01   1.188978E+02  -1.137839E-01  -1.055080E+01 
  1.650000E+01   9.816492E+01  -1.408400E-01  -1.571814E+01 
  1.660000E+01   7.629155E+01  -1.626955E-01  -1.989223E+01 
  1.670000E+01   5.607385E+01  -1.786472E-01  -2.293878E+01 
  1.680000E+01   3.952849E+01  -1.877587E-01  -2.467895E+01 
  1.690000E+01   2.781845E+01  -1.889179E-01  -2.490034E+01 
  1.700000E+01   2.162430E+01  -1.814403E-01  -2.347224E+01 
  1.710000E+01   2.152626E+01  -1.657197E-01  -2.046981E+01 
  1.720000E+01   2.807268E+01  -1.434994E-01  -1.622604E+01 
  1.730000E+01   4.145028E+01  -1.175073E-01  -1.126192E+01 
  1.740000E+01   6.090139E+01  -9.046845E-02  -6.097884E+00 
  1.750000E+01   8.432077E+01  -6.415240E-02  -1.071889E+00 
  1.760000E+01   1.085462E+02  -3.936469E-02   3.662215E+00 
  1.770000E+01   1.303540E+02  -1.683496E-02   7.965076E+00 
  1.780000E+01   1.474680E+02   1.985408E-03   1.155950E+01 
  1.790000E+01   1.588572E+02   1.498553E-02   1.404234E+01 
  1.800000E+01   1.643097E+02   2.019730E-02   1.503772E+01 
  1.810000E+01   1.638226E+02   1.664379E-02   1.435905E+01 
  1.820000E+01   1.572689E+02   4.763730E-03   1.209012E+01 
  1.830000E+01   1.444975E+02  -1.368509E-02   8.566657E+00 
  1.840000E+01   1.258335E+02  -3.626003E-02   4.255162E+00 
  1.850000E+01   1.027089E+02  -6.080899E-02  -4.333454E-01 
  1.860000E+01   7.786355E+01  -8.610631E-02  -5.264778E+00 
  1.870000E+01   5.469922E+01  -1.115450E-01  -1.012322E+01 
  1.880000E+01   3.612500E+01  -1.361723E-01  -1.482667E+01 
  1.890000E+01   2.376891E+01  -1.580495E-01  -1.900492E+01 
  1.900000E+01   1.802808E+01  -1.746320E-01  -2.217194E+01 
  1.910000E+01   1.864892E+01  -1.837772E-01  -2.391854E+01 
  1.920000E+01   2.526524E+01  -1.845092E-01  -2.405835E+01 
  1.930000E+01   3.757081E+01  -1.771679E-01  -2.265625E+01 
  1.940000E+01   5.507005E+01  -1.630012E-01  -1.995062E+01 
  1.950000E+01   7.655883E+01  -1.434267E-01  -1.621216E+01 
  1.960000E+01   9.975771E+01  -1.194424E-01  -1.163150E+01 
  1.970000E+01   1.215755E+02  -9.173468E-02  -6.339716E+00 
  1.980000E+01   1.390001E+02  -6.148096E-02  -5.616813E-01 
  1.990000E+01   1.500158E+02  -3.108044E-02   5.244389E+00 
  2.000000E+01   1.539402E+02  -3.924701E-03   1.043075E+01 
  2.010000E+01   1.511266E+02   1.671751E-02   1.437313E+01 
  2.020000E+01   1.424348E+02   2.875562E-02   1.667224E+01 
  2.030000E+01   1.288700E+02   3.159960E-02   1.721540E+01 
  2.040000E+01   1.115568E+02   2.576510E-02   1.610109E+01 
  2.050000E+01   9.198145E+01   1.215595E-02   1.350193E+01 
  2.060000E+01   7.221216E+01  -8.475757E-03   9.561566E+00 
  2.070000E+01   5.478948E+01  -3.547367E-02   4.405344E+00 
  2.080000E+01   4.221888E+01  -6.757990E-02  -1.726494E+00 
  2.090000E+01   3.630464E+01  -1.022172E-01  -8.341740E+00 
  2.100000E+01   3.769223E+01  -1.356715E-01  -1.473103E+01 
  2.110000E+01   4.583934E+01  -1.642433E-01  -2.018784E+01 
  2.120000E+01   5.933428E+01  -1.853706E-01  -2.422285E+01 
  2.130000E+01   7.631559E+01  -1.978785E-01  -2.661169E+01 
  2.140000E+01   9.478419E+01  -2.014599E-01  -2.729569E+01 
  2.150000E+01   1.127471E+02  -1.960559E-01  -2.626361E+01 
  2.160000E+01   1.282555E+02  -1.816766E-01  -2.351735E+01 
  2.170000E+01   1.394378E+02  -1.587885E-01  -1.914605E+01 
  2.180000E+01   1.446460E+02  -1.289705E-01  -1.345123E+01 
  2.190000E+01   1.427817E+02  -9.521045E-02  -7.003539E+00 
  2.200000E+01   1.337125E+02  -6.131321E-02  -5.296449E-01 
  2.210000E+01   1.185353E+02  -3.064385E-02   5.327771E+00 
  2.220000E+01   9.942835E+01  -5.246766E-03   1.017826E+01 
  2.230000E+01   7.907097E+01   1.392951E-02   1.384066E+01 
  2.240000E+01   5.993938E+01   2.619413E-02   1.618303E+01 
  2.250000E+01   4.388011E+01   3.061127E-02   1.702664E+01 
  2.260000E+01   3.214179E+01   2.620702E-02   1.618549E+01 
  2.270000E+01   2.568251E+01   1.264224E-02   1.359481E+01 
  2.280000E+01   2.538947E+01  -9.130057E-03   9.436604E+00 
  2.290000E+01   3.197068E+01  -3.667540E-02   4.175831E+00 
  2.300000E+01   4.551478E+01  -6.664033E-02  -1.547049E+00 
  2.310000E+01   6.495646E+01  -9.590697E-02  -7.136565E+00 
  2.320000E+01   8.790243E+01  -1.225174E-01  -1.221879E+01 
  2.330000E+01   1.111655E+02  -1.455702E-01  -1.662155E+01 
  2.340000E+01   1.317793E+02  -1.643501E-01  -2.020824E+01 
  2.350000E+01   1.477813E+02  -1.776628E-01  -2.275078E+01 
  2.360000E+01   1.582687E+02  -1.839679E-01  -2.395497E+01 
  2.370000E+01   1.629146E+02  -1.820962E-01  -2.359749E+01 
  2.380000E+01   1.614723E+02  -1.719435E-01  -2.165847E+01 
  2.390000E+01   1.536220E+02  -1.547386E-01  -1.837258E+01 
  2.400000E+01   1.392486E+02  -1.327287E-01  -1.416899E+01 
  2.410000E+01   1.190375E+02  -1.083043E-01  -9.504288E+00 
  2.420000E+01   9.498402E+01  -8.308710E-02  -4.688150E+00 
  2.430000E+01   7.023675E+01  -5.782644E-02   1.362806E-01 
  2.440000E+01   4.813815E+01  -3.321539E-02   4.836644E+00 
  2.450000E+01   3.111708E+01  -1.076838E-02   9.123708E+00 
  2.460000E+01   2.025769E+01   7.126673E-03   1.254141E+01 
  2.470000E+01   1.566680E+01   1.802513E-02   1.462286E+01 
  2.480000E+01   1.711725E+01   2.037741E-02   1.507212E+01 
  2.490000E+01   2.446452E+01   1.403239E-02   1.386031E+01 
  2.500000E+01   3.764005E+01   1.925912E-04   1.121710E+01 
  2.510000E+01   5.623054E+01  -1.913806E-02   7.525217E+00 
  2.520000E+01   7.887238E+01  -4.203799E-02   3.151652E+00 
  2.530000E+01   1.029812E+02  -6.731435E-02  -1.675778E+00 
  2.540000E+01   1.252644E+02  -9.430662E-02  -6.830922E+00 
  2.550000E+01   1.427928E+02  -1.219656E-01  -1.211340E+01 
  2.560000E+01   1.538432E+02  -1.481344E-01  -1.711126E+01 
  2.570000E+01   1.579848E+02  -1.698781E-01  -2.126401E+01 
  2.580000E+01   1.555906E+02  -1.845692E-01  -2.406980E+01 
  2.590000E+01   1.473012E+02  -1.907478E-01  -2.524983E+01 
  2.600000E+01   1.337946E+02  -1.882854E-01  -2.477954E+01 
  2.610000E+01   1.159410E+02  -1.779612E-01  -2.280778E+01 
  2.620000E+01   9.519091E+01  -1.607870E-01  -1.952773E+01 
  2.630000E+01   7.382493E+01  -1.375500E-01  -1.508981E+01 
  2.640000E+01   5.470228E+01  -1.089974E-01  -9.636650E+00 
  2.650000E+01   4.053275E+01  -7.660169E-02  -3.449528E+00 
  2.660000E+01   3.310710E+01  -4.316722E-02   2.935984E+00 
  2.670000E+01   3.294669E+01  -1.244738E-02   8.803043E+00 
  2.680000E+01   3.947551E+01   1.207477E-02   1.348643E+01 
  2.690000E+01   5.145782E+01   2.822694E-02   1.657127E+01 
  2.700000E+01   6.737769E+01   3.530272E-02   1.792264E+01 
  2.710000E+01   8.558263E+01   3.348055E-02   1.757463E+01 
  2.720000E+01   1.042337E+02   2.312675E-02   1.559720E+01 
  2.730000E+01   1.212555E+02   4.524928E-03   1.204451E+01 
  2.740000E+01   1.344538E+02  -2.175379E-02   7.025649E+00 
  2.750000E+01   1.418547E+02  -5.408416E-02   8.510037E-01 
  2.760000E+01   1.421853E+02  -8.937086E-02  -5.888260E+00 
  2.770000E+01   1.352776E+02  -1.236453E-01  -1.243420E+01 
  2.780000E+01   1.221708E+02  -1.533603E-01  -1.810934E+01 
  2.790000E+01   1.048372E+02  -1.762963E-01  -2.248979E+01 
  2.800000E+01   8.566415E+01  -1.914537E-01  -2.538465E+01 
  2.810000E+01   6.694721E+01  -1.983525E-01  -2.670221E+01 
  2.820000E+01   5.060995E+01  -1.965366E-01  -2.635541E+01 
  2.830000E+01   3.820643E+01  -1.856703E-01  -2.428011E+01 
  2.840000E+01   3.106683E+01  -1.660957E-01  -2.054163E+01 
  2.850000E+01   3.033286E+01  -1.394140E-01  -1.544580E+01 
  2.860000E+01   3.672079E+01  -1.085540E-01  -9.551977E+00 
  2.870000E+01   5.006758E+01  -7.700825E-02  -3.527176E+00 
  2.880000E+01   6.895349E+01  -4.761451E-02   2.086615E+00 
  2.890000E+01   9.080327E+01  -2.193374E-02   6.991280E+00 
  2.900000E+01   1.125868E+02  -7.546249E-04   1.103619E+01 
  2.910000E+01   1.317213E+02   1.499968E-02   1.404504E+01 
  2.920000E+01   1.465713E+02   2.392338E-02   1.574935E+01 
  2.930000E+01   1.563061E+02   2.456037E-02   1.587100E+01 
  2.940000E+01   1.604246E+02   1.618362E-02   1.427116E+01 
  2.950000E+01   1.584115E+02  -6.063738E-04   1.106451E+01 
  2.960000E+01   1.497741E+02  -2.376977E-02   6.640624E+00 
  2.970000E+01   1.344739E+02  -5.035551E-02   1.563122E+00 
  2.980000E+01   1.135399E+02  -7.755793E-02  -3.632156E+00 
  2.990000E+01   8.937342E+01  -1.036099E-01  -8.607719E+00 
  3.000000E+01   6.527820E+01  -1.277193E-01  -1.321227E+01 
  3.010000E+01   4.437123E+01  -1.491877E-01  -1.731244E+01 
  3.020000E+01   2.867020E+01  -1.666558E-01  -2.064860E+01 
  3.030000E+01   1.897556E+01  -1.782015E-01  -2.285366E+01 
  3.040000E+01   1.538668E+01  -1.821367E-01  -2.360523E+01 
  3.050000E+01   1.787560E+01  -1.777880E-01  -2.277469E+01 
  3.060000E+01   2.652609E+01  -1.658065E-01  -2.048640E+01 
  3.070000E+01   4.133203E+01  -1.479191E-01  -1.707015E+01 
  3.080000E+01   6.163814E+01  -1.261699E-01  -1.291635E+01 
  3.090000E+01   8.558207E+01  -1.020626E-01  -8.312205E+00 
  3.100000E+01   1.101232E+02  -7.635338E-02  -3.402105E+00 
  3.110000E+01   1.318989E+02  -4.974615E-02   1.679501E+00 
  3.120000E+01   1.483532E+02  -2.381614E-02   6.631768E+00 
  3.130000E+01   1.582954E+02  -1.194886E-03   1.095211E+01 
  3.140000E+01   1.616486E+02   1.522889E-02   1.408882E+01 
  3.150000E+01   1.588287E+02   2.336993E-02   1.564365E+01 
  3.160000E+01   1.502755E+02   2.254333E-02   1.548578E+01 
  3.170000E+01   1.363766E+02   1.343904E-02   1.374698E+01 
  3.180000E+01   1.177935E+02  -2.413935E-03   1.071929E+01 
  3.190000E+01   9.597864E+01  -2.344884E-02   6.701917E+00 
  3.200000E+01   7.341477E+01  -4.861728E-02   1.895101E+00 
  3.210000E+01   5.319000E+01  -7.718284E-02  -3.560520E+00 
  3.220000E+01   3.807169E+01  -1.078395E-01  -9.415515E+00 
  3.230000E+01   2.971453E+01  -1.380457E-01  -1.518447E+01 
  3.240000E+01   2.848526E+01  -1.644407E-01  -2.022554E+01 
