time(s),Q1,QBwx,QBwy,QBwz,U1,UBwx,UBwy,UBwz
0.0,0.0,0.0,0.0,0.0,860.0,1.0,0.0,0.0
0.0001,0.08599974976407963,9.82115345339256e-05,0.0,0.0,859.9949952859708,0.9644452132508176,0.0,0.0
0.000899901572323108,0.773895087805124,0.0007680161866356482,0.0,0.0,859.9549634452565,0.7219608484345788,0.0,0.0
0.0016897432275435583,1.45310772950968,0.0012639693969956163,0.0,0.0,859.9154367119663,0.5424146198209747,0.0,0.0
0.002526915350155554,2.1729874247466094,0.0016557064676770061,0.0,0.0,859.8735431678762,0.40059698021353163,0.0,0.0
0.003412190070558658,2.9341921268544584,0.0019591297072792334,0.0,0.0,859.8292444890487,0.29075093585632145,0.0,0.0
0.004351527835073337,3.741840131813212,0.0021906501273115373,0.0,0.0,859.7822427749512,0.2069353310865354,0.0,0.0
0.005351545895525379,4.6016128842575315,0.0023642689792485487,0.0,0.0,859.7322073431761,0.14408139763001301,0.0,0.0
0.006420148924067037,5.520296758518281,0.0024919488114825937,0.0,0.0,859.6787431976397,0.09785842363010344,0.0,0.0
0.0075668253934937455,6.506037253604514,0.0025837837480897057,0.0,0.0,859.6213762318841,0.06461210890051683,0.0,0.0
0.008803091783904298,7.568720040544296,0.002648179246297785,0.0,0.0,859.5595310486829,0.04129948867458271,0.0,0.0
0.01014309422271436,8.720486997658718,0.002692027719700073,0.0,0.0,859.4925009217815,0.025425354047788874,0.0,0.0
0.011604445090002066,9.976453699983923,0.0027208803713817623,0.0,0.0,859.4194060306017,0.014980044517098931,0.0,0.0
0.013209410406942415,11.355727621703688,0.0027391145536029755,0.0,0.0,859.3391341896239,0.008378860007584771,0.0,0.0
0.014986635667982829,12.882887858130875,0.002750095892228933,0.0,0.0,859.2502547110728,0.0044033681784493486,0.0,0.0
0.01697372305527036,14.590194476686527,0.002756334232088932,0.0,0.0,859.1508897926092,0.0021449486919421176,0.0,0.0
0.01922120133456699,16.520991159312764,0.0027596322364125555,0.0,0.0,859.0385164368414,0.0009509968717125209,0.0,0.0
0.021798864156124566,18.735136714891436,0.00276122519643291,0.0,0.0,858.9096502563676,0.00037430947860279354,0.0,0.0
0.024806319032493876,21.318042668242388,0.002761910274147818,0.0,0.0,858.759319338833,0.00012629592117531095,0.0,0.0
0.028391403560105687,24.396446231047904,0.0027621630267428278,0.0,0.0,858.5801459761329,3.479379101800608e-05,0.0,0.0
0.03278405632768247,28.167408600527303,0.0027622387021858127,0.0,0.0,858.3606583775186,7.397576813142037e-06,0.0,0.0
0.03836125139867896,32.95387648487934,0.0027622555977598797,0.0,0.0,858.0820556851763,1.280998594444566e-06,0.0,0.0
0.04576286635910206,39.303701507891205,0.002762258012047912,0.0,0.0,857.7124420125456,4.069719688409475e-07,0.0,0.0
0.055879710651561845,47.97849014598993,0.0027622570175729467,0.0,0.0,857.2074704434451,7.669942970175281e-07,0.0,0.0
0.06617443610572088,56.80056191595636,0.002762254679896631,0.0,0.0,856.6938953263777,1.6132857564411626e-06,0.0,0.0
0.07527120952044544,64.59164893823079,0.0027622547878063406,0.0,0.0,856.2403135984129,1.574220012120135e-06,0.0,0.0
0.08462058272461738,72.59478082862177,0.0027622541210800596,0.0,0.0,855.7743624184376,1.815589937269577e-06,0.0,0.0
0.09397204710330978,80.5953460358446,0.0027622533441757986,0.0,0.0,855.3085357090523,2.0968467719164527e-06,0.0,0.0
0.10306013303352622,88.36640721710273,0.002762253517057759,0.0,0.0,854.8560477698908,2.0342596097584397e-06,0.0,0.0
0.1119333621165899,95.94978147996078,0.0027622544155023595,0.0,0.0,854.4144655801393,1.7090024357578884e-06,0.0,0.0
0.12089650240801206,103.60601994656864,0.002762254923427953,0.0,0.0,853.9686176600053,1.5251219349280162e-06,0.0,0.0
0.13016181634497678,111.51617303655556,0.0027622545391764717,0.0,0.0,853.5079593422065,1.6642296225730654e-06,0.0,0.0
0.1395873421812239,119.5587267468812,0.002762253562999275,0.0,0.0,853.039565342287,2.0176277466145898e-06,0.0,0.0
0.148822444601856,127.43451623047979,0.002762253174873567,0.0,0.0,852.580858992504,2.1581379915925986e-06,0.0,0.0
0.157739902097503,135.03539568869638,0.002762253976894137,0.0,0.0,852.1381409969422,1.8677884876615882e-06,0.0,0.0
0.1665903408845358,142.57524849916214,0.002762254867793063,0.0,0.0,851.6989550787395,1.5452630176056813e-06,0.0,0.0
0.17571175403151004,150.3418830300945,0.0027622549022517985,0.0,0.0,851.2465360289419,1.5327881795276502e-06,0.0,0.0
0.18513770320714118,158.36348707692989,0.0027622540017525005,0.0,0.0,850.7792396216126,1.858789200208762e-06,0.0,0.0
0.19452595137163126,166.34862983711116,0.002762253061509055,0.0,0.0,850.3140420276344,2.1991784971931407e-06,0.0,0.0
0.20356527394056062,174.03286917444146,0.0027622534315327437,0.0,0.0,849.8663506393451,2.0652215907500493e-06,0.0,0.0
0.21236234078148392,181.50728460540728,0.002762254583339169,0.0,0.0,849.4308613849113,1.6482417316432008e-06,0.0,0.0
0.22131127057319003,189.10680029518105,0.0027622551117419568,0.0,0.0,848.9880606033252,1.4569480253924554e-06,0.0,0.0
0.23064639528143877,197.03005458117823,0.002762254537946668,0.0,0.0,848.526372168636,1.6646748389256282e-06,0.0,0.0
0.2401462713558244,205.0887191856088,0.0027622532845076628,0.0,0.0,848.056767803638,2.1184479802702415e-06,0.0,0.0
0.2493682991254859,212.90742109069396,0.002762252930900796,0.0,0.0,847.6011221698745,2.2464616275753863e-06,0.0,0.0
0.258201352392088,220.39240022434538,0.0027622540621819935,0.0,0.0,847.1649019025621,1.8369123630451293e-06,0.0,0.0
0.26699501964091665,227.84017777712484,0.002762255095931915,0.0,0.0,846.730827572352,1.4626716164612382e-06,0.0,0.0
0.27615668868487353,235.59557456352752,0.0027622550198511233,0.0,0.0,846.27880094798,1.490214576091157e-06,0.0,0.0
0.2856796329756602,243.6524041649056,0.002762253818618375,0.0,0.0,845.8091797545505,1.9250878768939434e-06,0.0,0.0
0.29510415276578317,251.62156032165734,0.0027622526936703197,0.0,0.0,845.3446434012657,2.3323444012158267e-06,0.0,0.0
0.30407435590251364,259.20249123885253,0.0027622533595728607,0.0,0.0,844.9027138074712,2.0912726884121796e-06,0.0,0.0
0.31277983537654547,266.5559083590301,0.00276225480242027,0.0,0.0,844.4740251130416,1.5689294403056065e-06,0.0,0.0
0.3217218248038242,274.10521818417755,0.002762255323192805,0.0,0.0,844.0338937306628,1.3803980574104226e-06,0.0,0.0
0.3311507050881409,282.06132564311605,0.002762254503352539,0.0,0.0,843.5700209285275,1.677198692601372e-06,0.0,0.0
0.3407371315726194,290.1458879791552,0.0027622528999725194,0.0,0.0,843.0986326355874,2.257658360043812e-06,0.0,0.0
0.34993079357853424,297.8949745894299,0.002762252646226767,0.0,0.0,842.6467803132775,2.3495200354276043e-06,0.0,0.0
0.3586567110468491,305.2459704726528,0.0027622541995183172,0.0,0.0,842.2181184636679,1.7871935217525228e-06,0.0,0.0
0.36738948900499285,312.59900183264745,0.002762255363601705,0.0,0.0,841.7893161191168,1.3657691258116713e-06,0.0,0.0
0.3766121779198444,320.3604753570911,0.0027622551338793906,0.0,0.0,841.3366712181394,1.4489337759057171e-06,0.0,0.0
0.38625565457131644,328.4716047252415,0.002762253546604122,0.0,0.0,840.863608563688,2.0235631609839768e-06,0.0,0.0
0.39571245752969963,336.4212935735583,0.0027622522197946827,0.0,0.0,840.3999357202134,2.5038980513549742e-06,0.0,0.0
0.4045883436998594,343.8786571705098,0.0027622533152624647,0.0,0.0,839.9649549250198,2.1073140496535712e-06,0.0,0.0
0.41318632397381,351.09884854939133,0.0027622550756135266,0.0,0.0,839.5437866683568,1.4700273305771955e-06,0.0,0.0
0.42213289730553577,358.60792896038765,0.002762255552552918,0.0,0.0,839.1057444846496,1.2973645325621581e-06,0.0,0.0
0.4316845474000524,366.6205408212059,0.0027622544197165645,0.0,0.0,838.6383035232711,1.7074767984138053e-06,0.0,0.0
0.4413688582236008,374.73988092707316,0.0027622523738809485,0.0,0.0,838.164609587261,2.4481153536955153e-06,0.0,0.0
0.45051337293934574,382.40244525280445,0.0027622523246175765,0.0,0.0,837.7175399748188,2.465949803545933e-06,0.0,0.0
0.4591069236642268,389.59960891173347,0.0027622543987917444,0.0,0.0,837.2976021934537,1.7150520543376966e-06,0.0,0.0
0.4677773877002413,396.8575315301498,0.0027622556652527022,0.0,0.0,836.8740978529326,1.2565646729894248e-06,0.0,0.0
0.47708737438322596,404.64670224423895,0.0027622552354355768,0.0,0.0,836.4195709028457,1.4121681497570698e-06,0.0,0.0
0.4868771142218282,412.8326937123668,0.0027622531530652568,0.0,0.0,835.941861239958,2.1660330905137565e-06,0.0,0.0
0.49635746560075916,420.7555243520117,0.002762251618298116,0.0,0.0,835.4794827060757,2.721653350935693e-06,0.0,0.0
0.5051096122913252,428.0658961115041,0.002762253315378568,0.0,0.0,835.0528246035597,2.1072720173029097e-06,0.0,0.0
0.5135851303455636,435.14165113788727,0.0027622553990661433,0.0,0.0,834.6398386346187,1.3529302005165339e-06,0.0,0.0
0.522552667456968,442.62435637863587,0.002762255791320661,0.0,0.0,834.2030780829907,1.2109252334805642e-06,0.0,0.0
0.5322604007217486,450.7202833149863,0.0027622542677912983,0.0,0.0,833.7304982409045,1.7624771652484692e-06,0.0,0.0
0.5420513199463444,458.88093895239246,0.002762251663242326,0.0,0.0,833.2541126965618,2.705382535068005e-06,0.0,0.0
0.5511204943538417,466.43586568755285,0.002762251977159325,0.0,0.0,832.8130626345555,2.5917375135075186e-06,0.0,0.0
0.5595558300580168,473.45919392245764,0.0027622546633742566,0.0,0.0,832.4030256954629,1.619267227808951e-06,0.0,0.0
0.5681664264970339,480.6248791121111,0.002762255989258139,0.0,0.0,831.984656641627,1.1392674099874652e-06,0.0,0.0
0.5775947536318555,488.4669439085593,0.0027622553140114786,0.0,0.0,831.5267727676306,1.383721904296652e-06,0.0,0.0
0.5875565323467488,496.74802092207676,0.002762252598634275,0.0,0.0,831.0432281174043,2.366749589063031e-06,0.0,0.0
0.5970460804617085,504.63206100494745,0.0027622508722967686,0.0,0.0,830.5828406291726,2.9917226352489164e-06,0.0,0.0
0.6056430220879753,511.77074110076063,0.0027622533754954517,0.0,0.0,830.1659560769394,2.0855083520566e-06,0.0,0.0
0.6139841906289701,518.6936089596963,0.0027622557594234624,0.0,0.0,829.7616542947374,1.2224727376845037e-06,0.0,0.0
0.6229935602259459,526.1672719708168,0.0027622560279869945,0.0,0.0,829.3251631905654,1.125246692370976e-06,0.0,0.0
0.6328924197816248,534.3742725840589,0.002762254026702794,0.0,0.0,828.8458155041448,1.849756632167825e-06,0.0,0.0
0.6427938298944607,542.5786422309145,0.0027622507233009677,0.0,0.0,828.3665934093335,3.045662469941513e-06,0.0,0.0
0.6517578689198295,550.0022089699803,0.002762251623964922,0.0,0.0,827.93295425571,2.71960183990792e-06,0.0,0.0
0.6600118792970351,556.8343289146669,0.002762254984728534,0.0,0.0,827.5338434342967,1.50292974435382e-06,0.0,0.0
0.6685697460605964,563.9144833006911,0.0027622563178492563,0.0,0.0,827.1202226180901,1.020310027487865e-06,0.0,0.0
0.6781493295634123,571.8357337234194,0.0027622553592052354,0.0,0.0,826.6574402978276,1.3673607471227917e-06,0.0,0.0
0.688305108078296,580.2285933604478,0.0027622518437910126,0.0,0.0,826.1670764953783,2.6400198458559505e-06,0.0,0.0
0.6967178060147038,587.1771795056463,0.002762254649405213,0.0,0.0,825.7610738825792,1.624324336398541e-06,0.0,0.0
0.7053003987087992,594.2625736617877,0.0027622560387452815,0.0,0.0,825.3470567448392,1.1213519504100973e-06,0.0,0.0
0.7147278703084757,602.0413667538186,0.0027622553762206097,0.0,0.0,824.8924982631358,1.3612007984433264e-06,0.0,0.0
0.7247214357177112,610.2825771902428,0.002762252575263597,0.0,0.0,824.4108903362118,2.3752103010363755e-06,0.0,0.0
0.7342367500323841,618.1249251995334,0.0027622507025708764,0.0,0.0,823.9525649239691,3.053167229796129e-06,0.0,0.0
0.7428235074125129,625.198230938169,0.002762253297599371,0.0,0.0,823.539161891731,2.1137084872468285e-06,0.0,0.0
0.7511324398561607,632.0393009149126,0.0027622557876036276,0.0,0.0,823.139311881328,1.2122708835059664e-06,0.0,0.0
0.7601232197701088,639.4380210499043,0.0027622560920410326,0.0,0.0,822.7068457870768,1.1020576883773174e-06,0.0,0.0
0.7700421318601833,647.5960126907125,0.002762254068194252,0.0,0.0,822.2299722736104,1.83473579028313e-06,0.0,0.0
0.7799812765528955,655.7659016953153,0.0027622505904554375,0.0,0.0,821.7523750145442,3.093755542839101e-06,0.0,0.0
0.7889538532216267,663.137204420581,0.002762251461548421,0.0,0.0,821.3214373748359,2.7784002700066846e-06,0.0,0.0
0.7971807250744181,669.8924859404865,0.0027622549719597974,0.0,0.0,820.9264929946803,1.5075523141770682e-06,0.0,0.0
0.8057065308066482,676.88980159147,0.002762256369942335,0.0,0.0,820.5173777269949,1.0014511598107639e-06,0.0,0.0
0.815286089084422,684.7477947245565,0.002762255429077896,0.0,0.0,820.0579159697083,1.3420652704333004e-06,0.0,0.0
0.8254798371731549,693.1047676453572,0.002762251808515453,0.0,0.0,819.5692496566066,2.6527903924587057e-06,0.0,0.0
0.8338799517660452,699.987552666911,0.0027622546659742085,0.0,0.0,819.1667627327797,1.6183259866850416e-06,0.0,0.0
0.8424563357075795,707.0112798304393,0.0027622560631373433,0.0,0.0,818.7560130119151,1.1125214746056825e-06,0.0,0.0
0.8518919011560753,714.7345746498679,0.0027622553860446528,0.0,0.0,818.304327990462,1.357644273471348e-06,0.0,0.0
0.8618997936242804,722.9216800803964,0.0027622525333210646,0.0,0.0,817.8254898159106,2.390394441909878e-06,0.0,0.0
0.8714176431316805,730.7034537716033,0.002762250634660542,0.0,0.0,817.3703315758983,3.077752299667935e-06,0.0,0.0
0.8799930660887294,737.710992432962,0.002762253295606534,0.0,0.0,816.9604363195491,2.114429938862208e-06,0.0,0.0
0.8882904722451592,744.4880001938417,0.0027622558124704233,0.0,0.0,816.5640055362251,1.2032685433270757e-06,0.0,0.0
0.8972826361320775,751.8287466523885,0.002762256111845659,0.0,0.0,816.1345757506216,1.0948879676204275e-06,0.0,0.0
0.9072160886288294,759.9334255315748,0.0027622540547570934,0.0,0.0,815.6604293573527,1.8396003440388345e-06,0.0,0.0
0.9171656144682848,768.0464984940922,0.0027622505115649666,0.0,0.0,815.1857635103959,3.122315669415084e-06,0.0,0.0
0.9261317680663045,775.3536624182274,0.0027622514239722504,0.0,0.0,814.7582240865279,2.792003689716412e-06,0.0,0.0
0.9343445218648659,782.0434636105429,0.0027622549912311375,0.0,0.0,814.3667860841904,1.5005756552018191e-06,0.0,0.0
0.9428643300397741,788.9799832110393,0.0027622563939138597,0.0,0.0,813.9608914808329,9.92772928191566e-07,0.0,0.0
0.95245387741167,796.7833100635569,0.0027622554373774597,0.0,0.0,813.504250215513,1.3390606414905416e-06,0.0,0.0
0.962663524500368,805.0864206212739,0.002762251752782102,0.0,0.0,813.0183332078464,2.6729671202202318e-06,0.0,0.0
0.9710506773869337,811.9036563946671,0.002762254671349989,0.0,0.0,812.6193506076615,1.6163798331555782e-06,0.0,0.0
0.979616205672639,818.8624259838589,0.002762256089325916,0.0,0.0,812.2120638227027,1.1030406217728542e-06,0.0,0.0
0.9890559941798776,826.5274183557408,0.002762255407730955,0.0,0.0,811.7634184417099,1.3497933438554595e-06,0.0,0.0
0.9990802547105095,834.6623594644295,0.0027622525038239042,0.0,0.0,811.2872381399362,2.401073078125476e-06,0.0,0.0
1.0076467432485594,841.6105000212417,0.0027622546072294586,0.0,0.0,810.8805045736221,1.6395929088889726e-06,0.0,0.0
1.0163680573247962,848.6806385802915,0.0027622557018818854,0.0,0.0,810.4666077892562,1.2433040841686091e-06,0.0,0.0
1.0257531567358749,856.2848590293946,0.0027622550813502403,0.0,0.0,810.0214206381013,1.4679505110913668e-06,0.0,0.0
1.0355501226064265,864.2183357487286,0.0027622528880151863,0.0,0.0,809.5569302866245,2.2619871839552256e-06,0.0,0.0
1.044956073052545,871.83089170295,0.0027622516576065056,0.0,0.0,809.1112033220307,2.707422829192656e-06,0.0,0.0
1.0536445274935315,878.8590296108543,0.002762253589782165,0.0,0.0,808.6996723709236,2.0079317371898338e-06,0.0,0.0
1.0621391710027155,885.7269367628635,0.002762255528779413,0.0,0.0,808.2975027372139,1.3059710766163295e-06,0.0,0.0
1.0711904235459955,893.0411030006211,0.0027622557214123473,0.0,0.0,807.8691783444802,1.2362336171599499e-06,0.0,0.0
1.0809516991285844,900.9246831209275,0.0027622539927563802,0.0,0.0,807.4074821769209,1.8620459982392084e-06,0.0,0.0
1.0906927387307874,908.7874282985299,0.0027622514885900394,0.0,0.0,806.9469789141049,2.768610595357606e-06,0.0,0.0
1.0996708820851524,916.0304094096678,0.002762252242467404,0.0,0.0,806.522749701388,2.4956900157314015e-06,0.0,0.0
1.108081623829212,922.8121933146078,0.002762254900316729,0.0,0.0,806.1255123023641,1.5334887180628631e-06,0.0,0.0
1.1167615915562794,929.8075582193106,0.0027622560126861068,0.0,0.0,805.7157432667434,1.1307859582442169e-06,0.0,0.0
1.126280565308915,937.4750072693666,0.0027622551115776893,0.0,0.0,805.2665805285947,1.4570074939987727e-06,0.0,0.0
1.13624068255509,945.4932172975164,0.002762252259580762,0.0,0.0,804.7968421823601,2.4894945947813364e-06,0.0,0.0
1.1456330677488105,953.0500998878643,0.00276225097821799,0.0,0.0,804.3541041066262,2.9533767683466287e-06,0.0,0.0
1.154158700684916,959.9060152623858,0.0027622537175762464,0.0,0.0,803.9524119303319,1.961667402452549e-06,0.0,0.0
1.1625327906779799,966.6367337142067,0.0027622558883505666,0.0,0.0,803.5580347855376,1.1757982232632772e-06,0.0,0.0
1.1716473732224044,973.9588742733231,0.0027622559291838955,0.0,0.0,803.128981178938,1.161015638783036e-06,0.0,0.0
1.1816040454735164,981.9530339646749,0.0027622536684409078,0.0,0.0,802.6605221569588,1.979455501336753e-06,0.0,0.0
1.1914334567554064,989.8404424304304,0.002762250535068936,0.0,0.0,802.1982908300616,3.113806703408724e-06,0.0,0.0
1.2002883072229635,996.9419455121844,0.002762251999127246,0.0,0.0,801.7820926941104,2.583784631694442e-06,0.0,0.0
1.2085227322261003,1003.5425671106992,0.0027622552438608416,0.0,0.0,801.3952295217799,1.409118014458793e-06,0.0,0.0
1.2171720071591712,1010.4722980957135,0.002762256325008559,0.0,0.0,800.9890562252808,1.017718198628554e-06,0.0,0.0
1.2268590156924133,1018.229283454308,0.002762255098625839,0.0,0.0,800.5343694249494,1.4616963553109072e-06,0.0,0.0
1.2370001103362456,1026.3451657183946,0.0027622514113471554,0.0,0.0,800.0586164699205,2.7965742584820304e-06,0.0,0.0
1.2453352779857798,1033.0121594336576,0.0027622546264424405,0.0,0.0,799.6677752152307,1.632637376861581e-06,0.0,0.0
1.253832200864738,1039.805182772541,0.002762256198494478,0.0,0.0,799.2695251284608,1.0635191442030025e-06,0.0,0.0
1.2632654565008434,1047.3428119437149,0.0027622555566319453,0.0,0.0,798.8275972146936,1.2958878326976948e-06,0.0,0.0
1.2733643470117566,1055.4076964478982,0.0027622524649425283,0.0,0.0,798.3547281950422,2.4151490114848095e-06,0.0,0.0
1.2819106517295698,1062.2289699452692,0.002762254642561055,0.0,0.0,797.9547530109011,1.6268020753129544e-06,0.0,0.0
1.290625128491642,1069.1809516856592,0.0027622557443849607,0.0,0.0,797.547091934729,1.2279170137603022e-06,0.0,0.0
1.30002615656361,1076.6766479167109,0.00276225508952192,0.0,0.0,797.1075231996915,1.4649921787343832e-06,0.0,0.0
1.3098446769986314,1084.5008115747296,0.0027622528144491893,0.0,0.0,796.6486650764574,2.2886197309414e-06,0.0,0.0
1.3192507585040072,1091.9920873445692,0.0027622515689045184,0.0,0.0,796.2093035888183,2.7395349454761196e-06,0.0,0.0
1.3279188758590086,1098.8919689054658,0.0027622536006794867,0.0,0.0,795.8046046967651,2.0039866612241533e-06,0.0,0.0
1.336396779670186,1105.6370465729117,0.002762255576486092,0.0,0.0,795.4089646154113,1.288700184632487e-06,0.0,0.0
1.3454544918667315,1112.8397184432065,0.0027622557520070564,0.0,0.0,794.9864609904304,1.2251576435420667e-06,0.0,0.0
1.3552406125576826,1120.6173192234098,0.0027622539573645827,0.0,0.0,794.5302059205907,1.8748586257222834e-06,0.0,0.0
1.3649948146719064,1128.3651104414898,0.00276225137088127,0.0,0.0,794.0756721454989,2.8112238199392854e-06,0.0,0.0
1.3739585153506515,1135.481095798425,0.0027622522037896104,0.0,0.0,793.6581799099591,2.5096922476312405e-06,0.0,0.0
1.3823458704874874,1142.1361511827204,0.0027622549435060667,0.0,0.0,793.2677093307366,1.517853205369667e-06,0.0,0.0
1.3910200238471062,1149.0153261913108,0.0027622560566706337,0.0,0.0,792.8640677399982,1.1148625690910664e-06,0.0,0.0
1.4005595801722672,1156.57678109673,0.0027622551148615434,0.0,0.0,792.4203677844123,1.4558186648098317e-06,0.0,0.0
1.4105442296829684,1164.486503274158,0.002762252158385021,0.0,0.0,791.9562037446613,2.526129731510792e-06,0.0,0.0
1.41993401300868,1171.9207519369857,0.002762250872266723,0.0,0.0,791.5199156102397,2.9917335125073966e-06,0.0,0.0
